# Variance (Varr) Standard Error (SEM) Block Size (B) Number of Blocks (n)
0.027972533034 0.000186991086 1.000000000000 800000.000000000000
0.027223237696 0.000260879463 2.000000000000 400000.000000000000
0.026144058388 0.000361552613 4.000000000000 200000.000000000000
0.024339318075 0.000493348944 8.000000000000 100000.000000000000
0.021329121622 0.000653132783 16.000000000000 50000.000000000000
0.016829271469 0.000820469901 32.000000000000 25000.000000000000
0.011473180147 0.000958047187 64.000000000000 12500.000000000000
0.006886352692 0.001049674440 128.000000000000 6250.000000000000
0.003657404224 0.001081836102 256.000000000000 3125.000000000000
0.001767608663 0.001063781776 512.000000000000 1562.000000000000
0.000935120368 0.001094229052 1024.000000000000 781.000000000000
0.000453258891 0.001078054862 2048.000000000000 390.000000000000
0.000234524398 0.001096671884 4096.000000000000 195.000000000000
0.000113694748 0.001082640662 8192.000000000000 97.000000000000
